# Time(s)     R            T
-3.00000e+01  4.58177e-04  6.04197e-04
-2.99500e+01  4.28666e-04  5.75483e-04
-2.99000e+01  4.00663e-04  5.46308e-04
-2.98500e+01  3.74488e-04  5.17241e-04
-2.98000e+01  3.50400e-04  4.88808e-04
-2.97500e+01  3.28598e-04  4.61482e-04
-2.97000e+01  3.09219e-04  4.35676e-04
-2.96500e+01  2.92336e-04  4.11735e-04
-2.96000e+01  2.77966e-04  3.89929e-04
-2.95500e+01  2.66068e-04  3.70451e-04
-2.95000e+01  2.56552e-04  3.53416e-04
-2.94500e+01  2.49282e-04  3.38857e-04
-2.94000e+01  2.44086e-04  3.26736e-04
-2.93500e+01  2.40758e-04  3.16940e-04
-2.93000e+01  2.39071e-04  3.09294e-04
-2.92500e+01  2.38780e-04  3.03562e-04
-2.92000e+01  2.39627e-04  2.99462e-04
-2.91500e+01  2.41352e-04  2.96673e-04
-2.91000e+01  2.43696e-04  2.94844e-04
-2.90500e+01  2.46404e-04  2.93608e-04
-2.90000e+01  2.49234e-04  2.92591e-04
-2.89500e+01  2.51956e-04  2.91419e-04
-2.89000e+01  2.54359e-04  2.89736e-04
-2.88500e+01  2.56252e-04  2.87204e-04
-2.88000e+01  2.57464e-04  2.83518e-04
-2.87500e+01  2.57850e-04  2.78410e-04
-2.87000e+01  2.57286e-04  2.71657e-04
-2.86500e+01  2.55676e-04  2.63083e-04
-2.86000e+01  2.52945e-04  2.52564e-04
-2.85500e+01  2.49045e-04  2.40029e-04
-2.85000e+01  2.43949e-04  2.25460e-04
-2.84500e+01  2.37655e-04  2.08891e-04
-2.84000e+01  2.30180e-04  1.90406e-04
-2.83500e+01  2.21561e-04  1.70133e-04
-2.83000e+01  2.11851e-04  1.48242e-04
-2.82500e+01  2.01123e-04  1.24936e-04
-2.82000e+01  1.89458e-04  1.00448e-04
-2.81500e+01  1.76954e-04  7.50325e-05
-2.81000e+01  1.63713e-04  4.89586e-05
-2.80500e+01  1.49846e-04  2.25048e-05
-2.80000e+01  1.35468e-04 -4.04839e-06
-2.79500e+01  1.20695e-04 -3.04240e-05
-2.79000e+01  1.05641e-04 -5.63543e-05
-2.78500e+01  9.04157e-05 -8.15849e-05
-2.78000e+01  7.51236e-05 -1.05879e-04
-2.77500e+01  5.98597e-05 -1.29019e-04
-2.77000e+01  4.47087e-05 -1.50809e-04
-2.76500e+01  2.97433e-05 -1.71077e-04
-2.76000e+01  1.50228e-05 -1.89673e-04
-2.75500e+01  5.93282e-07 -2.06466e-04
-2.75000e+01 -1.35131e-05 -2.21350e-04
-2.74500e+01 -2.72771e-05 -2.34231e-04
-2.74000e+01 -4.06913e-05 -2.45036e-04
-2.73500e+01 -5.37590e-05 -2.53704e-04
-2.73000e+01 -6.64917e-05 -2.60187e-04
-2.72500e+01 -7.89072e-05 -2.64445e-04
-2.72000e+01 -9.10267e-05 -2.66451e-04
-2.71500e+01 -1.02872e-04 -2.66187e-04
-2.71000e+01 -1.14464e-04 -2.63643e-04
-2.70500e+01 -1.25817e-04 -2.58824e-04
-2.70000e+01 -1.36937e-04 -2.51745e-04
-2.69500e+01 -1.47821e-04 -2.42440e-04
-2.69000e+01 -1.58451e-04 -2.30959e-04
-2.68500e+01 -1.68794e-04 -2.17377e-04
-2.68000e+01 -1.78801e-04 -2.01791e-04
-2.67500e+01 -1.88402e-04 -1.84331e-04
-2.67000e+01 -1.97509e-04 -1.65153e-04
-2.66500e+01 -2.06014e-04 -1.44451e-04
-2.66000e+01 -2.13789e-04 -1.22449e-04
-2.65500e+01 -2.20687e-04 -9.94099e-05
-2.65000e+01 -2.26543e-04 -7.56258e-05
-2.64500e+01 -2.31177e-04 -5.14207e-05
-2.64000e+01 -2.34396e-04 -2.71448e-05
-2.63500e+01 -2.35995e-04 -3.16849e-06
-2.63000e+01 -2.35765e-04  2.01239e-05
-2.62500e+01 -2.33493e-04  4.23423e-05
-2.62000e+01 -2.28968e-04  6.30998e-05
-2.61500e+01 -2.21987e-04  8.20226e-05
-2.61000e+01 -2.12358e-04  9.87593e-05
-2.60500e+01 -1.99906e-04  1.12991e-04
-2.60000e+01 -1.84481e-04  1.24442e-04
-2.59500e+01 -1.65959e-04  1.32887e-04
-2.59000e+01 -1.44249e-04  1.38161e-04
-2.58500e+01 -1.19300e-04  1.40164e-04
-2.58000e+01 -9.10999e-05  1.38868e-04
-2.57500e+01 -5.96857e-05  1.34321e-04
-2.57000e+01 -2.51418e-05  1.26646e-04
-2.56500e+01  1.23959e-05  1.16044e-04
-2.56000e+01  5.27383e-05  1.02787e-04
-2.55500e+01  9.56433e-05  8.72160e-05
-2.55000e+01  1.40815e-04  6.97337e-05
-2.54500e+01  1.87907e-04  5.07947e-05
-2.54000e+01  2.36523e-04  3.08950e-05
-2.53500e+01  2.86218e-04  1.05595e-05
-2.53000e+01  3.36508e-04 -9.67128e-06
-2.52500e+01  3.86868e-04 -2.92555e-05
-2.52000e+01  4.36741e-04 -4.76651e-05
-2.51500e+01  4.85543e-04 -6.44001e-05
-2.51000e+01  5.32668e-04 -7.90032e-05
-2.50500e+01  5.77496e-04 -9.10730e-05
-2.50000e+01  6.19400e-04 -1.00276e-04
-2.49500e+01  6.57752e-04 -1.06357e-04
-2.49000e+01  6.91932e-04 -1.09146e-04
-2.48500e+01  7.21335e-04 -1.08569e-04
-2.48000e+01  7.45378e-04 -1.04643e-04
-2.47500e+01  7.63511e-04 -9.74840e-05
-2.47000e+01  7.75223e-04 -8.73010e-05
-2.46500e+01  7.80049e-04 -7.43923e-05
-2.46000e+01  7.77577e-04 -5.91381e-05
-2.45500e+01  7.67461e-04 -4.19909e-05
-2.45000e+01  7.49419e-04 -2.34646e-05
-2.44500e+01  7.23246e-04 -4.12102e-06
-2.44000e+01  6.88817e-04  1.54432e-05
-2.43500e+01  6.46091e-04  3.46119e-05
-2.43000e+01  5.95118e-04  5.27635e-05
-2.42500e+01  5.36037e-04  6.92863e-05
-2.42000e+01  4.69084e-04  8.35921e-05
-2.41500e+01  3.94587e-04  9.51300e-05
-2.41000e+01  3.12968e-04  1.03398e-04
-2.40500e+01  2.24741e-04  1.07955e-04
-2.40000e+01  1.30509e-04  1.08430e-04
-2.39500e+01  3.09565e-05  1.04529e-04
-2.39000e+01 -7.31543e-05  9.60444e-05
-2.38500e+01 -1.80992e-04  8.28555e-05
-2.38000e+01 -2.91663e-04  6.49359e-05
-2.37500e+01 -4.04227e-04  4.23527e-05
-2.37000e+01 -5.17701e-04  1.52666e-05
-2.36500e+01 -6.31074e-04 -1.60696e-05
-2.36000e+01 -7.43322e-04 -5.13144e-05
-2.35500e+01 -8.53417e-04 -9.00432e-05
-2.35000e+01 -9.60344e-04 -1.31754e-04
-2.34500e+01 -1.06311e-03 -1.75877e-04
-2.34000e+01 -1.16076e-03 -2.21783e-04
-2.33500e+01 -1.25240e-03 -2.68794e-04
-2.33000e+01 -1.33717e-03 -3.16195e-04
-2.32500e+01 -1.41432e-03 -3.63250e-04
-2.32000e+01 -1.48317e-03 -4.09209e-04
-2.31500e+01 -1.54312e-03 -4.53330e-04
-2.31000e+01 -1.59371e-03 -4.94888e-04
-2.30500e+01 -1.63455e-03 -5.33186e-04
-2.30000e+01 -1.66539e-03 -5.67578e-04
-2.29500e+01 -1.68609e-03 -5.97471e-04
-2.29000e+01 -1.69663e-03 -6.22343e-04
-2.28500e+01 -1.69713e-03 -6.41750e-04
-2.28000e+01 -1.68779e-03 -6.55334e-04
-2.27500e+01 -1.66895e-03 -6.62833e-04
-2.27000e+01 -1.64106e-03 -6.64079e-04
-2.26500e+01 -1.60466e-03 -6.59008e-04
-2.26000e+01 -1.56037e-03 -6.47653e-04
-2.25500e+01 -1.50891e-03 -6.30149e-04
-2.25000e+01 -1.45106e-03 -6.06723e-04
-2.24500e+01 -1.38764e-03 -5.77694e-04
-2.24000e+01 -1.31953e-03 -5.43462e-04
-2.23500e+01 -1.24762e-03 -5.04502e-04
-2.23000e+01 -1.17283e-03 -4.61353e-04
-2.22500e+01 -1.09606e-03 -4.14609e-04
-2.22000e+01 -1.01819e-03 -3.64907e-04
-2.21500e+01 -9.40093e-04 -3.12915e-04
-2.21000e+01 -8.62581e-04 -2.59323e-04
-2.20500e+01 -7.86424e-04 -2.04829e-04
-2.20000e+01 -7.12328e-04 -1.50128e-04
-2.19500e+01 -6.40929e-04 -9.59023e-05
-2.19000e+01 -5.72790e-04 -4.28112e-05
-2.18500e+01 -5.08394e-04  8.51998e-06
-2.18000e+01 -4.48141e-04  5.75077e-05
-2.17500e+01 -3.92348e-04  1.03619e-04
-2.17000e+01 -3.41249e-04  1.46377e-04
-2.16500e+01 -2.94995e-04  1.85369e-04
-2.16000e+01 -2.53662e-04  2.20251e-04
-2.15500e+01 -2.17250e-04  2.50748e-04
-2.15000e+01 -1.85695e-04  2.76661e-04
-2.14500e+01 -1.58868e-04  2.97863e-04
-2.14000e+01 -1.36590e-04  3.14303e-04
-2.13500e+01 -1.18634e-04  3.25999e-04
-2.13000e+01 -1.04733e-04  3.33042e-04
-2.12500e+01 -9.45930e-05  3.35583e-04
-2.12000e+01 -8.78949e-05  3.33833e-04
-2.11500e+01 -8.43052e-05  3.28054e-04
-2.11000e+01 -8.34815e-05  3.18554e-04
-2.10500e+01 -8.50800e-05  3.05677e-04
-2.10000e+01 -8.87603e-05  2.89793e-04
-2.09500e+01 -9.41908e-05  2.71293e-04
-2.09000e+01 -1.01053e-04  2.50578e-04
-2.08500e+01 -1.09045e-04  2.28052e-04
-2.08000e+01 -1.17885e-04  2.04110e-04
-2.07500e+01 -1.27309e-04  1.79140e-04
-2.07000e+01 -1.37080e-04  1.53506e-04
-2.06500e+01 -1.46981e-04  1.27550e-04
-2.06000e+01 -1.56817e-04  1.01585e-04
-2.05500e+01 -1.66418e-04  7.58926e-05
-2.05000e+01 -1.75632e-04  5.07221e-05
-2.04500e+01 -1.84330e-04  2.62880e-05
-2.04000e+01 -1.92398e-04  2.77193e-06
-2.03500e+01 -1.99740e-04 -1.96766e-05
-2.03000e+01 -2.06275e-04 -4.09377e-05
-2.02500e+01 -2.11933e-04 -6.09185e-05
-2.02000e+01 -2.16658e-04 -7.95500e-05
-2.01500e+01 -2.20400e-04 -9.67831e-05
-2.01000e+01 -2.23120e-04 -1.12585e-04
-2.00500e+01 -2.24785e-04 -1.26937e-04
-2.00000e+01 -2.25369e-04 -1.39828e-04
-1.99500e+01 -2.24851e-04 -1.51256e-04
-1.99000e+01 -2.23217e-04 -1.61222e-04
-1.98500e+01 -2.20460e-04 -1.69730e-04
-1.98000e+01 -2.16579e-04 -1.76784e-04
-1.97500e+01 -2.11579e-04 -1.82390e-04
-1.97000e+01 -2.05475e-04 -1.86553e-04
-1.96500e+01 -1.98291e-04 -1.89282e-04
-1.96000e+01 -1.90059e-04 -1.90582e-04
-1.95500e+01 -1.80823e-04 -1.90466e-04
-1.95000e+01 -1.70639e-04 -1.88949e-04
-1.94500e+01 -1.59574e-04 -1.86051e-04
-1.94000e+01 -1.47706e-04 -1.81802e-04
-1.93500e+01 -1.35127e-04 -1.76239e-04
-1.93000e+01 -1.21939e-04 -1.69411e-04
-1.92500e+01 -1.08255e-04 -1.61377e-04
-1.92000e+01 -9.41967e-05 -1.52209e-04
-1.91500e+01 -7.98953e-05 -1.41994e-04
-1.91000e+01 -6.54874e-05 -1.30829e-04
-1.90500e+01 -5.11140e-05 -1.18825e-04
-1.90000e+01 -3.69181e-05 -1.06105e-04
-1.89500e+01 -2.30429e-05 -9.28003e-05
-1.89000e+01 -9.62870e-06 -7.90532e-05
-1.88500e+01  3.18914e-06 -6.50115e-05
-1.88000e+01  1.52825e-05 -5.08274e-05
-1.87500e+01  2.65326e-05 -3.66555e-05
-1.87000e+01  3.68325e-05 -2.26493e-05
-1.86500e+01  4.60881e-05 -8.95935e-06
-1.86000e+01  5.42204e-05  4.26984e-06
-1.85500e+01  6.11663e-05  1.69020e-05
-1.85000e+01  6.68795e-05  2.88115e-05
-1.84500e+01  7.13311e-05  3.98855e-05
-1.84000e+01  7.45099e-05  5.00255e-05
-1.83500e+01  7.64222e-05  5.91490e-05
-1.83000e+01  7.70914e-05  6.71906e-05
-1.82500e+01  7.65571e-05  7.41026e-05
-1.82000e+01  7.48742e-05  7.98554e-05
-1.81500e+01  7.21116e-05  8.44375e-05
-1.81000e+01  6.83510e-05  8.78552e-05
-1.80500e+01  6.36847e-05  9.01318e-05
-1.80000e+01  5.82144e-05  9.13064e-05
-1.79500e+01  5.20492e-05  9.14330e-05
-1.79000e+01  4.53033e-05  9.05790e-05
-1.78500e+01  3.80949e-05  8.88230e-05
-1.78000e+01  3.05437e-05  8.62536e-05
-1.77500e+01  2.27692e-05  8.29671e-05
-1.77000e+01  1.48895e-05  7.90658e-05
-1.76500e+01  7.01899e-06  7.46558e-05
-1.76000e+01 -7.32399e-07  6.98455e-05
-1.75500e+01 -8.26088e-06  6.47432e-05
-1.75000e+01 -1.54698e-05  5.94557e-05
-1.74500e+01 -2.22704e-05  5.40867e-05
-1.74000e+01 -2.85828e-05  4.87352e-05
-1.73500e+01 -3.43364e-05  4.34941e-05
-1.73000e+01 -3.94705e-05  3.84493e-05
-1.72500e+01 -4.39341e-05  3.36787e-05
-1.72000e+01 -4.76864e-05  2.92513e-05
-1.71500e+01 -5.06965e-05  2.52267e-05
-1.71000e+01 -5.29434e-05  2.16551e-05
-1.70500e+01 -5.44155e-05  1.85763e-05
-1.70000e+01 -5.51102e-05  1.60205e-05
-1.69500e+01 -5.50336e-05  1.40081e-05
-1.69000e+01 -5.41997e-05  1.25498e-05
-1.68500e+01 -5.26301e-05  1.16475e-05
-1.68000e+01 -5.03529e-05  1.12943e-05
-1.67500e+01 -4.74023e-05  1.14757e-05
-1.67000e+01 -4.38180e-05  1.21699e-05
-1.66500e+01 -3.96440e-05  1.33488e-05
-1.66000e+01 -3.49283e-05  1.49786e-05
-1.65500e+01 -2.97219e-05  1.70211e-05
-1.65000e+01 -2.40782e-05  1.94341e-05
-1.64500e+01 -1.80525e-05  2.21727e-05
-1.64000e+01 -1.17006e-05  2.51898e-05
-1.63500e+01 -5.07922e-06  2.84371e-05
-1.63000e+01  1.75563e-06  3.18660e-05
-1.62500e+01  8.74855e-06  3.54280e-05
-1.62000e+01  1.58456e-05  3.90759e-05
-1.61500e+01  2.29947e-05  4.27638e-05
-1.61000e+01  3.01459e-05  4.64481e-05
-1.60500e+01  3.72523e-05  5.00876e-05
-1.60000e+01  4.42698e-05  5.36443e-05
-1.59500e+01  5.11574e-05  5.70832e-05
-1.59000e+01  5.78781e-05  6.03728e-05
-1.58500e+01  6.43983e-05  6.34853e-05
-1.58000e+01  7.06882e-05  6.63966e-05
-1.57500e+01  7.67223e-05  6.90862e-05
-1.57000e+01  8.24786e-05  7.15372e-05
-1.56500e+01  8.79393e-05  7.37365e-05
-1.56000e+01  9.30904e-05  7.56743e-05
-1.55500e+01  9.79217e-05  7.73441e-05
-1.55000e+01  1.02427e-04  7.87427e-05
-1.54500e+01  1.06602e-04  7.98695e-05
-1.54000e+01  1.10449e-04  8.07270e-05
-1.53500e+01  1.13969e-04  8.13197e-05
-1.53000e+01  1.17170e-04  8.16548e-05
-1.52500e+01  1.20061e-04  8.17412e-05
-1.52000e+01  1.22652e-04  8.15897e-05
-1.51500e+01  1.24958e-04  8.12124e-05
-1.51000e+01  1.26995e-04  8.06229e-05
-1.50500e+01  1.28779e-04  7.98358e-05
-1.50000e+01  1.30330e-04  7.88663e-05
-1.49500e+01  1.31667e-04  7.77303e-05
-1.49000e+01  1.32813e-04  7.64440e-05
-1.48500e+01  1.33788e-04  7.50238e-05
-1.48000e+01  1.34618e-04  7.34858e-05
-1.47500e+01  1.35323e-04  7.18461e-05
-1.47000e+01  1.35929e-04  7.01202e-05
-1.46500e+01  1.36459e-04  6.83229e-05
-1.46000e+01  1.36937e-04  6.64687e-05
-1.45500e+01  1.37385e-04  6.45708e-05
-1.45000e+01  1.37827e-04  6.26418e-05
-1.44500e+01  1.38285e-04  6.06933e-05
-1.44000e+01  1.38781e-04  5.87360e-05
-1.43500e+01  1.39335e-04  5.67796e-05
-1.43000e+01  1.39965e-04  5.48329e-05
-1.42500e+01  1.40690e-04  5.29041e-05
-1.42000e+01  1.41526e-04  5.10004e-05
-1.41500e+01  1.42487e-04  4.91285e-05
-1.41000e+01  1.43586e-04  4.72946e-05
-1.40500e+01  1.44832e-04  4.55042e-05
-1.40000e+01  1.46233e-04  4.37628e-05
-1.39500e+01  1.47796e-04  4.20753e-05
-1.39000e+01  1.49522e-04  4.04467e-05
-1.38500e+01  1.51413e-04  3.88816e-05
-1.38000e+01  1.53466e-04  3.73844e-05
-1.37500e+01  1.55676e-04  3.59594e-05
-1.37000e+01  1.58036e-04  3.46106e-05
-1.36500e+01  1.60537e-04  3.33415e-05
-1.36000e+01  1.63165e-04  3.21552e-05
-1.35500e+01  1.65909e-04  3.10540e-05
-1.35000e+01  1.68751e-04  3.00394e-05
-1.34500e+01  1.71675e-04  2.91119e-05
-1.34000e+01  1.74662e-04  2.82708e-05
-1.33500e+01  1.77695e-04  2.75138e-05
-1.33000e+01  1.80755e-04  2.68372e-05
-1.32500e+01  1.83823e-04  2.62357e-05
-1.32000e+01  1.86884e-04  2.57020e-05
-1.31500e+01  1.89920e-04  2.52271e-05
-1.31000e+01  1.92920e-04  2.47999e-05
-1.30500e+01  1.95872e-04  2.44079e-05
-1.30000e+01  1.98768e-04  2.40366e-05
-1.29500e+01  2.01606e-04  2.36699e-05
-1.29000e+01  2.04383e-04  2.32907e-05
-1.28500e+01  2.07105e-04  2.28803e-05
-1.28000e+01  2.09779e-04  2.24194e-05
-1.27500e+01  2.12418e-04  2.18884e-05
-1.27000e+01  2.15038e-04  2.12671e-05
-1.26500e+01  2.17661e-04  2.05356e-05
-1.26000e+01  2.20312e-04  1.96748e-05
-1.25500e+01  2.23019e-04  1.86662e-05
-1.25000e+01  2.25811e-04  1.74926e-05
-1.24500e+01  2.28724e-04  1.61384e-05
-1.24000e+01  2.31792e-04  1.45901e-05
-1.23500e+01  2.35049e-04  1.28362e-05
-1.23000e+01  2.38530e-04  1.08676e-05
-1.22500e+01  2.42269e-04  8.67833e-06
-1.22000e+01  2.46298e-04  6.26497e-06
-1.21500e+01  2.50642e-04  3.62742e-06
-1.21000e+01  2.55326e-04  7.68796e-07
-1.20500e+01  2.60367e-04 -2.30440e-06
-1.20000e+01  2.65777e-04 -5.58220e-06
-1.19500e+01  2.71558e-04 -9.05115e-06
-1.19000e+01  2.77706e-04 -1.26943e-05
-1.18500e+01  2.84209e-04 -1.64912e-05
-1.18000e+01  2.91046e-04 -2.04182e-05
-1.17500e+01  2.98183e-04 -2.44481e-05
-1.17000e+01  3.05582e-04 -2.85510e-05
-1.16500e+01  3.13193e-04 -3.26938e-05
-1.16000e+01  3.20955e-04 -3.68412e-05
-1.15500e+01  3.28804e-04 -4.09555e-05
-1.15000e+01  3.36664e-04 -4.49971e-05
-1.14500e+01  3.44455e-04 -4.89252e-05
-1.14000e+01  3.52089e-04 -5.26979e-05
-1.13500e+01  3.59477e-04 -5.62729e-05
-1.13000e+01  3.66525e-04 -5.96083e-05
-1.12500e+01  3.73140e-04 -6.26626e-05
-1.12000e+01  3.79226e-04 -6.53960e-05
-1.11500e+01  3.84694e-04 -6.77704e-05
-1.11000e+01  3.89453e-04 -6.97505e-05
-1.10500e+01  3.93423e-04 -7.13039e-05
-1.10000e+01  3.96527e-04 -7.24023e-05
-1.09500e+01  3.98699e-04 -7.30212e-05
-1.09000e+01  3.99880e-04 -7.31412e-05
-1.08500e+01  4.00024e-04 -7.27477e-05
-1.08000e+01  3.99096e-04 -7.18317e-05
-1.07500e+01  3.97074e-04 -7.03898e-05
-1.07000e+01  3.93949e-04 -6.84243e-05
-1.06500e+01  3.89726e-04 -6.59435e-05
-1.06000e+01  3.84424e-04 -6.29615e-05
-1.05500e+01  3.78073e-04 -5.94980e-05
-1.05000e+01  3.70720e-04 -5.55784e-05
-1.04500e+01  3.62421e-04 -5.12330e-05
-1.04000e+01  3.53247e-04 -4.64970e-05
-1.03500e+01  3.43278e-04 -4.14101e-05
-1.03000e+01  3.32605e-04 -3.60157e-05
-1.02500e+01  3.21325e-04 -3.03607e-05
-1.02000e+01  3.09544e-04 -2.44943e-05
-1.01500e+01  2.97373e-04 -1.84681e-05
-1.01000e+01  2.84926e-04 -1.23350e-05
-1.00500e+01  2.72319e-04 -6.14838e-06
-1.00000e+01  2.59670e-04  3.81492e-08
-9.95000e+00  2.47094e-04  6.17190e-06
-9.90000e+00  2.34702e-04  1.22016e-05
-9.85000e+00  2.22604e-04  1.80783e-05
-9.80000e+00  2.10900e-04  2.37559e-05
-9.75000e+00  1.99687e-04  2.91917e-05
-9.70000e+00  1.89049e-04  3.43477e-05
-9.65000e+00  1.79066e-04  3.91905e-05
-9.60000e+00  1.69805e-04  4.36923e-05
-9.55000e+00  1.61322e-04  4.78312e-05
-9.50000e+00  1.53665e-04  5.15917e-05
-9.45000e+00  1.46867e-04  5.49653e-05
-9.40000e+00  1.40955e-04  5.79502e-05
-9.35000e+00  1.35939e-04  6.05518e-05
-9.30000e+00  1.31824e-04  6.27827e-05
-9.25000e+00  1.28601e-04  6.46623e-05
-9.20000e+00  1.26252e-04  6.62164e-05
-9.15000e+00  1.24749e-04  6.74768e-05
-9.10000e+00  1.24057e-04  6.84808e-05
-9.05000e+00  1.24131e-04  6.92700e-05
-9.00000e+00  1.24920e-04  6.98892e-05
-8.95000e+00  1.26363e-04  7.03858e-05
-8.90000e+00  1.28397e-04  7.08078e-05
-8.85000e+00  1.30951e-04  7.12029e-05
-8.80000e+00  1.33948e-04  7.16172e-05
-8.75000e+00  1.37311e-04  7.20932e-05
-8.70000e+00  1.40956e-04  7.26693e-05
-8.65000e+00  1.44798e-04  7.33777e-05
-8.60000e+00  1.48752e-04  7.42441e-05
-8.55000e+00  1.52728e-04  7.52862e-05
-8.50000e+00  1.56642e-04  7.65131e-05
-8.45000e+00  1.60407e-04  7.79252e-05
-8.40000e+00  1.63940e-04  7.95137e-05
-8.35000e+00  1.67161e-04  8.12608e-05
-8.30000e+00  1.69995e-04  8.31400e-05
-8.25000e+00  1.72372e-04  8.51171e-05
-8.20000e+00  1.74230e-04  8.71505e-05
-8.15000e+00  1.75513e-04  8.91932e-05
-8.10000e+00  1.76173e-04  9.11932e-05
-8.05000e+00  1.76173e-04  9.30956e-05
-8.00000e+00  1.75484e-04  9.48443e-05
-7.95000e+00  1.74090e-04  9.63827e-05
-7.90000e+00  1.71983e-04  9.76565e-05
-7.85000e+00  1.69167e-04  9.86143e-05
-7.80000e+00  1.65656e-04  9.92098e-05
-7.75000e+00  1.61477e-04  9.94025e-05
-7.70000e+00  1.56664e-04  9.91592e-05
-7.65000e+00  1.51262e-04  9.84549e-05
-7.60000e+00  1.45325e-04  9.72733e-05
-7.55000e+00  1.38912e-04  9.56072e-05
-7.50000e+00  1.32091e-04  9.34587e-05
-7.45000e+00  1.24934e-04  9.08391e-05
-7.40000e+00  1.17515e-04  8.77682e-05
-7.35000e+00  1.09911e-04  8.42736e-05
-7.30000e+00  1.02199e-04  8.03900e-05
-7.25000e+00  9.44549e-05  7.61577e-05
-7.20000e+00  8.67507e-05  7.16217e-05
-7.15000e+00  7.91545e-05  6.68299e-05
-7.10000e+00  7.17287e-05  6.18319e-05
-7.05000e+00  6.45291e-05  5.66775e-05
-7.00000e+00  5.76037e-05  5.14155e-05
-6.95000e+00  5.09927e-05  4.60922e-05
-6.90000e+00  4.47277e-05  4.07508e-05
-6.85000e+00  3.88319e-05  3.54301e-05
-6.80000e+00  3.33204e-05  3.01643e-05
-6.75000e+00  2.82003e-05  2.49822e-05
-6.70000e+00  2.34717e-05  1.99074e-05
-6.65000e+00  1.91279e-05  1.49582e-05
-6.60000e+00  1.51570e-05  1.01473e-05
-6.55000e+00  1.15422e-05  5.48315e-06
-6.50000e+00  8.26307e-06  9.69301e-07
-6.45000e+00  5.29616e-06 -3.39446e-06
-6.40000e+00  2.61608e-06 -7.61181e-06
-6.35000e+00  1.96072e-07 -1.16893e-05
-6.30000e+00 -1.99134e-06 -1.56360e-05
-6.25000e+00 -3.97388e-06 -1.94626e-05
-6.20000e+00 -5.77921e-06 -2.31815e-05
-6.15000e+00 -7.43468e-06 -2.68059e-05
-6.10000e+00 -8.96726e-06 -3.03497e-05
-6.05000e+00 -1.04035e-05 -3.38268e-05
-6.00000e+00 -1.17698e-05 -3.72509e-05
-5.95000e+00 -1.30919e-05 -4.06351e-05
-5.90000e+00 -1.43959e-05 -4.39915e-05
-5.85000e+00 -1.57072e-05 -4.73306e-05
-5.80000e+00 -1.70514e-05 -5.06608e-05
-5.75000e+00 -1.84533e-05 -5.39884e-05
-5.70000e+00 -1.99374e-05 -5.73164e-05
-5.65000e+00 -2.15265e-05 -6.06445e-05
-5.60000e+00 -2.32422e-05 -6.39681e-05
-5.55000e+00 -2.51033e-05 -6.72782e-05
-5.50000e+00 -2.71257e-05 -7.05610e-05
-5.45000e+00 -2.93214e-05 -7.37969e-05
-5.40000e+00 -3.16981e-05 -7.69610e-05
-5.35000e+00 -3.42583e-05 -8.00227e-05
-5.30000e+00 -3.69987e-05 -8.29457e-05
-5.25000e+00 -3.99104e-05 -8.56885e-05
-5.20000e+00 -4.29779e-05 -8.82051e-05
-5.15000e+00 -4.61797e-05 -9.04456e-05
-5.10000e+00 -4.94881e-05 -9.23572e-05
-5.05000e+00 -5.28694e-05 -9.38861e-05
-5.00000e+00 -5.62846e-05 -9.49783e-05
-4.95000e+00 -5.96898e-05 -9.55822e-05
-4.90000e+00 -6.30374e-05 -9.56497e-05
-4.85000e+00 -6.62765e-05 -9.51387e-05
-4.80000e+00 -6.93545e-05 -9.40151e-05
-4.75000e+00 -7.22180e-05 -9.22545e-05
-4.70000e+00 -7.48142e-05 -8.98446e-05
-4.65000e+00 -7.70918e-05 -8.67864e-05
-4.60000e+00 -7.90030e-05 -8.30961e-05
-4.55000e+00 -8.05039e-05 -7.88058e-05
-4.50000e+00 -8.15567e-05 -7.39647e-05
-4.45000e+00 -8.21302e-05 -6.86391e-05
